PT1,PT2,PT3,PT4,PT5,PT6,Time (ms)
0.2460000067949295,0.23912499845027924,0.23737500607967377,0.2680000066757202,0.26737499237060547,0.26350000500679016,2947.0
0.28075000643730164,0.2718749940395355,0.26662498712539673,0.3022499978542328,0.3062500059604645,0.3100000023841858,3044.0
0.31150001287460327,0.2994999885559082,0.29237499833106995,0.32624998688697815,0.3343749940395355,0.3409999907016754,3106.0
0.34587499499320984,0.3307499885559082,0.32100000977516174,0.3527500033378601,0.36399999260902405,0.36550000309944153,3173.0
0.37812501192092896,0.359499990940094,0.34700000286102295,0.3774999976158142,0.3908750116825104,0.39237499237060547,3232.0
0.40700000524520874,0.3871249854564667,0.3708750009536743,0.4032500088214874,0.41850000619888306,0.41850000619888306,3294.0
0.4372499883174896,0.4126250147819519,0.39649999141693115,0.4286249876022339,0.4543749988079071,0.4491249918937683,3351.0
0.46912500262260437,0.4442499876022339,0.42262500524520874,0.4571250081062317,0.47874999046325684,0.4805000126361847,3418.0
0.500374972820282,0.47350001335144043,0.44749999046325684,0.4801250100135803,0.5041249990463257,0.5091249942779541,3478.0
0.528124988079071,0.500124990940094,0.4726249873638153,0.5024999976158142,0.5367500185966492,0.5329999923706055,3536.0
0.5591250061988831,0.5285000205039978,0.503000020980835,0.531624972820282,0.5676249861717224,0.5640000104904175,3601.0
0.593999981880188,0.5576249957084656,0.531000018119812,0.562624990940094,0.593500018119812,0.593874990940094,3669.0
0.625374972820282,0.5862500071525574,0.5534999966621399,0.5893750190734863,0.6202499866485596,0.6228749752044678,3729.0
0.6542500257492065,0.6138749718666077,0.5799999833106995,0.6143749952316284,0.6480000019073486,0.6476250290870667,3786.0
0.6847500205039978,0.643750011920929,0.6043750047683716,0.6381250023841858,0.6728749871253967,0.6786249876022339,3847.0
0.7131249904632568,0.6708750128746033,0.6301249861717224,0.6626250147819519,0.7012500166893005,0.7055000066757202,3911.0
0.7444999814033508,0.6980000138282776,0.6597499847412109,0.690625011920929,0.7315000295639038,0.7351250052452087,3973.0
0.7785000205039978,0.7286249995231628,0.6861249804496765,0.718999981880188,0.765375018119812,0.7664999961853027,4040.0
0.812125027179718,0.7598749995231628,0.7135000228881836,0.749875009059906,0.796875,0.7928749918937683,4106.0
0.8452500104904175,0.7906249761581421,0.7392500042915344,0.7735000252723694,0.8231250047683716,0.8165000081062317,4166.0
0.8778749704360962,0.8195000290870667,0.765749990940094,0.8013749718666077,0.8608750104904175,0.8519999980926514,4231.0
0.9079999923706055,0.8495000004768372,0.7947499752044678,0.8274999856948853,0.8809999823570251,0.8803750276565552,4297.0
0.9390000104904175,0.8772500157356262,0.8213750123977661,0.8539999723434448,0.9107499718666077,0.9127500057220459,4357.0
0.971750020980835,0.9085000157356262,0.8489999771118164,0.8836249709129333,0.940750002861023,0.9446250200271606,4423.0
1.0036250352859497,0.9391250014305115,0.8786249756813049,0.9131249785423279,0.9698749780654907,0.9777500033378601,4489.0
1.03725004196167,0.9702500104904175,0.906499981880188,0.9413750171661377,0.9986249804496765,1.00600004196167,4556.0
1.0726250410079956,1.003749966621399,0.9316250085830688,0.9664999842643738,1.031999945640564,1.031499981880188,4624.0
1.1046249866485596,1.031499981880188,0.9610000252723694,0.9909999966621399,1.0701249837875366,1.059499979019165,4683.0
1.1330000162124634,1.0640000104904175,0.9906250238418579,1.0197499990463257,1.090999960899353,1.0941250324249268,4749.0
1.1652499437332153,1.0913749933242798,1.0127500295639038,1.046875,1.1183749437332153,1.1268750429153442,4810.0
1.1948750019073486,1.121500015258789,1.0383750200271606,1.075624942779541,1.1490000486373901,1.1507500410079956,4873.0
1.228124976158142,1.1503750085830688,1.0653749704360962,1.1012500524520874,1.1857500076293945,1.1785000562667847,4933.0
1.2569999694824219,1.1790000200271606,1.0931249856948853,1.1283750534057617,1.2051249742507935,1.20912504196167,5001.0
1.2882499694824219,1.206624984741211,1.1178749799728394,1.152500033378601,1.231124997138977,1.2398749589920044,5061.0
1.3191250562667847,1.2342499494552612,1.1477500200271606,1.17787504196167,1.2738749980926514,1.263124942779541,5119.0
1.3488750457763672,1.265125036239624,1.1768749952316284,1.2086249589920044,1.2907500267028809,1.2905000448226929,5186.0
1.387624979019165,1.296875,1.2021249532699585,1.2365000247955322,1.3332500457763672,1.3232500553131104,5250.0
1.4155000448226929,1.3252500295639038,1.227874994277954,1.2637499570846558,1.3504999876022339,1.3548749685287476,5316.0
1.4478750228881836,1.3541250228881836,1.2516249418258667,1.28725004196167,1.3769999742507935,1.3832499980926514,5377.0
1.4791250228881836,1.384124994277954,1.2806249856948853,1.3148750066757202,1.410249948501587,1.4161250591278076,5440.0
1.5117499828338623,1.4167499542236328,1.3103749752044678,1.34375,1.440000057220459,1.4392499923706055,5506.0
1.5472500324249268,1.446874976158142,1.3385000228881836,1.3711249828338623,1.480875015258789,1.4741250276565552,5566.0
1.577375054359436,1.4796249866485596,1.3657499551773071,1.4066250324249268,1.4989999532699585,1.509374976158142,5634.0
1.609874963760376,1.5081249475479126,1.3953750133514404,1.4307500123977661,1.5268750190734863,1.5246249437332153,5703.0
1.6464999914169312,1.537750005722046,1.4229999780654907,1.4544999599456787,1.5552500486373901,1.5633749961853027,5767.0
1.6727499961853027,1.5671249628067017,1.4467500448226929,1.4809999465942383,1.5861250162124634,1.5958750247955322,5828.0
1.7047499418258667,1.597249984741211,1.4736249446868896,1.50962495803833,1.6157499551773071,1.6263749599456787,5892.0
1.7401249408721924,1.6295000314712524,1.5012500286102295,1.5387500524520874,1.643125057220459,1.6545000076293945,5958.0
1.7676249742507935,1.6579999923706055,1.5322500467300415,1.568750023841858,1.6752500534057617,1.672374963760376,6024.0
1.8072500228881836,1.688249945640564,1.5567500591278076,1.5913749933242798,1.722249984741211,1.7070000171661377,6085.0
1.8279999494552612,1.7163749933242798,1.5861250162124634,1.6168750524520874,1.7366249561309814,1.730375051498413,6152.0
1.8669999837875366,1.750749945640564,1.6116249561309814,1.6437499523162842,1.761875033378601,1.7703750133514404,6212.0
1.8953750133514404,1.7722500562667847,1.6393749713897705,1.6706249713897705,1.7890000343322754,1.7862499952316284,6270.0
1.9332499504089355,1.8018749952316284,1.6655000448226929,1.7013750076293945,1.8232500553131104,1.82212495803833,6333.0
1.9521249532699585,1.8296250104904175,1.6859999895095825,1.7266249656677246,1.8461250066757202,1.8524999618530273,6394.0
1.9852499961853027,1.8567500114440918,1.7138750553131104,1.750499963760376,1.8904999494552612,1.8765000104904175,6453.0
2.0134999752044678,1.886875033378601,1.74399995803833,1.7778749465942383,1.9072500467300415,1.9001250267028809,6520.0
2.0562500953674316,1.9273749589920044,1.7756249904632568,1.8096250295639038,1.9423749446868896,1.9355000257492065,6582.0
2.086625099182129,1.9651249647140503,1.8079999685287476,1.8368749618530273,1.9716249704360962,1.9611250162124634,6645.0
2.1045000553131104,1.9915000200271606,1.8292499780654907,1.8638750314712524,1.9980000257492065,1.9837499856948853,6711.0
2.15625,2.0137500762939453,1.8526250123977661,1.8928749561309814,2.022249937057495,2.0303750038146973,6780.0
2.1751248836517334,2.039750099182129,1.8760000467300415,1.9172500371932983,2.0541250705718994,2.0596249103546143,6840.0
2.211124897003174,2.069624900817871,1.9101250171661377,1.9453749656677246,2.082124948501587,2.093874931335449,6907.0
2.2442500591278076,2.102874994277954,1.9353749752044678,1.9746249914169312,2.1131250858306885,2.1233749389648438,6975.0
2.274625062942505,2.134124994277954,1.965250015258789,2.0042500495910645,2.144124984741211,2.1528749465942383,7041.0
2.3066248893737793,2.162874937057495,1.9947500228881836,2.0336248874664307,2.1727499961853027,2.1817500591278076,7105.0
2.3494999408721924,2.1989998817443848,2.0195000171661377,2.0625,2.2047500610351562,2.2168750762939453,7175.0
2.3746249675750732,2.2306249141693115,2.049375057220459,2.087625026702881,2.238874912261963,2.25,7242.0
2.4091250896453857,2.260624885559082,2.076625108718872,2.1146249771118164,2.2669999599456787,2.2801249027252197,7307.0
2.4417500495910645,2.287874937057495,2.1121249198913574,2.14662504196167,2.2957499027252197,2.2899999618530273,7372.0
2.4784998893737793,2.321500062942505,2.1347498893737793,2.1727499961853027,2.321125030517578,2.3303749561309814,7432.0
2.4997498989105225,2.3450000286102295,2.1554999351501465,2.1988749504089355,2.350874900817871,2.360874891281128,7493.0
2.532249927520752,2.3731250762939453,2.1883749961853027,2.227375030517578,2.3788750171661377,2.3894999027252197,7557.0
2.5677499771118164,2.4041249752044678,2.216749906539917,2.255000114440918,2.4105000495910645,2.424375057220459,7624.0
2.5996251106262207,2.4382500648498535,2.2442500591278076,2.2833750247955322,2.443624973297119,2.448124885559082,7692.0
2.633500099182129,2.47237491607666,2.2744998931884766,2.320125102996826,2.475374937057495,2.461124897003174,7751.0
2.6541249752044678,2.4932498931884766,2.2921249866485596,2.336625099182129,2.4966249465942383,2.5043749809265137,7810.0
2.69350004196167,2.5203750133514404,2.3228750228881836,2.3626248836517334,2.526249885559082,2.5299999713897705,7869.0
2.7191250324249268,2.5482499599456787,2.3408749103546143,2.388000011444092,2.5486249923706055,2.5622498989105225,7929.0
2.750124931335449,2.574625015258789,2.372499942779541,2.413249969482422,2.577500104904175,2.594249963760376,7990.0
2.781374931335449,2.6056249141693115,2.4043750762939453,2.440500020980835,2.6082499027252197,2.6089999675750732,8056.0
2.818000078201294,2.6378750801086426,2.430875062942505,2.468874931335449,2.6603751182556152,2.637125015258789,8117.0
2.8424999713897705,2.665250062942505,2.4593749046325684,2.4996249675750732,2.6711249351501465,2.678375005722046,8184.0
2.876499891281128,2.69712495803833,2.4774999618530273,2.526249885559082,2.6948750019073486,2.707750082015991,8245.0
2.9075000286102295,2.7226250171661377,2.5102500915527344,2.550374984741211,2.724250078201294,2.7231249809265137,8305.0
2.943125009536743,2.767124891281128,2.5344998836517334,2.5843749046325684,2.758500099182129,2.7486250400543213,8365.0
2.9543750286102295,2.7826249599456787,2.557499885559082,2.6016249656677246,2.776624917984009,2.7906250953674316,8428.0
2.9719998836517334,2.8083748817443848,2.589750051498413,2.632499933242798,2.808000087738037,2.8198750019073486,8490.0
2.97475004196167,2.8396248817443848,2.6206250190734863,2.663249969482422,2.8410000801086426,2.835249900817871,8557.0
2.9835000038146973,2.8726251125335693,2.6424999237060547,2.6878750324249268,2.8738749027252197,2.8757500648498535,8616.0
2.972749948501587,2.898250102996826,2.6635000705718994,2.711124897003174,2.8919999599456787,2.909749984741211,8676.0
2.97237491607666,2.9181249141693115,2.6978750228881836,2.7360000610351562,2.9242498874664307,2.938499927520752,8739.0
2.9725000858306885,2.927999973297119,2.7286250591278076,2.7683749198913574,2.946500062942505,2.9633750915527344,8805.0
2.976875066757202,2.9287500381469727,2.760624885559082,2.8010001182556152,2.9533751010894775,2.9851250648498535,8874.0
2.97237491607666,2.931375026702881,2.7801249027252197,2.8268749713897705,2.9517500400543213,2.990999937057495,8941.0
2.9731249809265137,2.928999900817871,2.815124988555908,2.858750104904175,2.955749988555908,2.9857499599456787,9005.0
2.9749999046325684,2.928499937057495,2.8434998989105225,2.890625,2.9554998874664307,2.9912500381469727,9074.0
2.9744999408721924,2.931375026702881,2.8687500953674316,2.9140000343322754,2.957124948501587,2.987499952316284,9140.0
2.976249933242798,2.929374933242798,2.9028749465942383,2.947000026702881,2.955625057220459,2.969749927520752,9205.0
2.989500045776367,2.9347500801086426,2.922374963760376,2.953000068664551,2.9784998893737793,2.976749897003174,9266.0
2.9695000648498535,2.9297499656677246,2.928375005722046,2.9539999961853027,2.9568750858306885,2.986875057220459,9332.0
2.972249984741211,2.9311249256134033,2.9236249923706055,2.9523749351501465,2.9528748989105225,2.9907500743865967,9393.0
2.9721250534057617,2.927000045776367,2.930875062942505,2.954124927520752,2.9512500762939453,2.9835000038146973,9457.0
2.975374937057495,2.928999900817871,2.930375099182129,2.955749988555908,2.9548749923706055,2.9852499961853027,9524.0
2.9790000915527344,2.9322500228881836,2.9214999675750732,2.9539999961853027,2.9548749923706055,2.992875099182129,9591.0
2.9731249809265137,2.928375005722046,2.931375026702881,2.953624963760376,2.9572501182556152,2.9800000190734863,9656.0
2.981374979019165,2.934375047683716,2.9296250343322754,2.9549999237060547,2.9786250591278076,2.9771249294281006,9717.0
2.969374895095825,2.92787504196167,2.9287500381469727,2.9542500972747803,2.962625026702881,2.9851250648498535,9784.0
2.9716250896453857,2.9297499656677246,2.9227499961853027,2.9543750286102295,2.955625057220459,2.9916250705718994,9844.0
2.977750062942505,2.929500102996826,2.929874897003174,2.953125,2.951124906539917,2.987375020980835,9903.0
2.975374937057495,2.930999994277954,2.9241249561309814,2.9523749351501465,2.9523749351501465,2.9891250133514404,9963.0
2.9735000133514404,2.9277501106262207,2.9302499294281006,2.9553749561309814,2.9547500610351562,2.9866249561309814,10024.0
2.976375102996826,2.9286251068115234,2.931375026702881,2.9538750648498535,2.9560000896453857,2.976375102996826,10091.0
2.9825000762939453,2.9378750324249268,2.923374891281128,2.953000068664551,2.9560000896453857,2.9887499809265137,10149.0
2.9730000495910645,2.9287500381469727,2.924499988555908,2.953000068664551,2.9549999237060547,2.9892499446868896,10209.0
2.971250057220459,2.9297499656677246,2.923374891281128,2.9539999961853027,2.9570000171661377,2.9827499389648438,10274.0
2.981250047683716,2.9321250915527344,2.928999900817871,2.9514999389648438,2.9565000534057617,2.9876248836517334,10333.0
2.974375009536743,2.930999994277954,2.922874927520752,2.9523749351501465,2.9533751010894775,2.9891250133514404,10394.0
2.974375009536743,2.9276249408721924,2.928499937057495,2.9558749198913574,2.955749988555908,2.9932498931884766,10456.0
2.974874973297119,2.929374933242798,2.930999994277954,2.9547500610351562,2.9548749923706055,2.9711248874664307,10521.0
2.9836249351501465,2.934875011444092,2.9272499084472656,2.953125,2.955625057220459,2.989000082015991,10582.0
2.9760000705718994,2.93149995803833,2.9230000972747803,2.9528748989105225,2.9553749561309814,2.989000082015991,10643.0
