PT1,PT2,PT3,PT4,PT5,PT6,Time (ms)
0.24412499368190765,0.23549999296665192,0.23637500405311584,0.2593750059604645,0.2621249854564667,0.2566249966621399,2201.0
0.25099998712539673,0.24012500047683716,0.23774999380111694,0.26225000619888306,0.26762500405311584,0.2592499852180481,2265.0
0.257999986410141,0.24662500619888306,0.242125004529953,0.2680000066757202,0.27149999141693115,0.2642500102519989,2325.0
0.2686249911785126,0.2551249861717224,0.24574999511241913,0.2747499942779541,0.2771250009536743,0.26787498593330383,2394.0
0.2770000100135803,0.26249998807907104,0.2475000023841858,0.27900001406669617,0.2836250066757202,0.2747499942779541,2454.0
0.28312501311302185,0.26899999380111694,0.24887500703334808,0.28437501192092896,0.28962498903274536,0.2788749933242798,2514.0
0.29237499833106995,0.2759999930858612,0.2515000104904175,0.2887499928474426,0.2955000102519989,0.2865000069141388,2573.0
0.2998749911785126,0.2847500145435333,0.25312501192092896,0.29462501406669617,0.30149999260902405,0.2939999997615814,2633.0
0.3082500100135803,0.2928749918937683,0.2551249861717224,0.30149999260902405,0.3082500100135803,0.2992500066757202,2694.0
0.3188750147819519,0.30162501335144043,0.25725001096725464,0.3070000112056732,0.3187499940395355,0.3089999854564667,2754.0
0.32725000381469727,0.3109999895095825,0.25962498784065247,0.3137499988079071,0.3241249918937683,0.31812500953674316,2821.0
0.3362500071525574,0.320250004529953,0.2616249918937683,0.31987500190734863,0.33024999499320984,0.32637500762939453,2881.0
0.3466250002384186,0.328125,0.2632499933242798,0.3269999921321869,0.33762499690055847,0.33399999141693115,2947.0
0.35600000619888306,0.3362500071525574,0.265625,0.33274999260902405,0.34575000405311584,0.3412500023841858,3006.0
0.3634999990463257,0.34450000524520874,0.2680000066757202,0.33937498927116394,0.3577499985694885,0.3526250123977661,3066.0
0.3786250054836273,0.3577499985694885,0.27425000071525574,0.35100001096725464,0.3631249964237213,0.3623749911785126,3167.0
0.3881250023841858,0.36662501096725464,0.2784999907016754,0.35837501287460327,0.3714999854564667,0.3707500100135803,3227.0
0.3987500071525574,0.37549999356269836,0.28325000405311584,0.3659999966621399,0.37937501072883606,0.3765000104904175,3295.0
0.4077500104904175,0.3831250071525574,0.2862499952316284,0.37312498688697815,0.3863750100135803,0.3843750059604645,3355.0
0.41574999690055847,0.39162498712539673,0.289249986410141,0.3804999887943268,0.39375001192092896,0.39137500524520874,3415.0
0.4271250069141388,0.40037500858306885,0.2930000126361847,0.3880000114440918,0.4022499918937683,0.3972499966621399,3479.0
0.4362500011920929,0.4077500104904175,0.29600000381469727,0.3958750069141388,0.40962499380111694,0.40700000524520874,3538.0
0.44312500953674316,0.4163750112056732,0.2981249988079071,0.4032500088214874,0.4166249930858612,0.41475000977516174,3598.0
0.45249998569488525,0.42512500286102295,0.3023749887943268,0.4111250042915344,0.42649999260902405,0.4243749976158142,3661.0
0.4621250033378601,0.4338749945163727,0.3059999942779541,0.41987499594688416,0.43537500500679016,0.429625004529953,3727.0
0.4727500081062317,0.4440000057220459,0.30912500619888306,0.4273749887943268,0.4442499876022339,0.4404999911785126,3788.0
0.4803749918937683,0.45225000381469727,0.31025001406669617,0.4347499907016754,0.4517500102519989,0.4506250023841858,3849.0
0.48912501335144043,0.46012499928474426,0.3137499988079071,0.4426249861717224,0.46037501096725464,0.45649999380111694,3911.0
0.49912500381469727,0.4698750078678131,0.3165000081062317,0.44987499713897705,0.4726249873638153,0.46650001406669617,3971.0
0.5057500004768372,0.47850000858306885,0.320374995470047,0.4580000042915344,0.47749999165534973,0.47612500190734863,4038.0
0.515250027179718,0.4878750145435333,0.3227500021457672,0.46412500739097595,0.48387500643730164,0.4856249988079071,4099.0
0.5233749747276306,0.49424999952316284,0.32624998688697815,0.47087499499320984,0.4958750009536743,0.492374986410141,4158.0
0.5306249856948853,0.5027499794960022,0.32987499237060547,0.4790000021457672,0.499875009059906,0.503000020980835,4224.0
0.5389999747276306,0.5109999775886536,0.3321250081062317,0.48524999618530273,0.5068749785423279,0.5108749866485596,4283.0
0.546500027179718,0.5174999833106995,0.33637499809265137,0.49162501096725464,0.5147500038146973,0.5151249766349792,4344.0
0.5558750033378601,0.5264999866485596,0.3398750126361847,0.4976249933242798,0.5206249952316284,0.5249999761581421,4404.0
0.5625,0.5327500104904175,0.34287500381469727,0.5051249861717224,0.5289999842643738,0.5322499871253967,4464.0
0.5709999799728394,0.5385000109672546,0.3473750054836273,0.5133749842643738,0.5367500185966492,0.5406249761581421,4527.0
0.5802500247955322,0.5477499961853027,0.3504999876022339,0.5213750004768372,0.5443750023841858,0.5476250052452087,4596.0
0.5882499814033508,0.5558750033378601,0.3555000126361847,0.5296249985694885,0.5526250004768372,0.5558750033378601,4661.0
0.5982499718666077,0.5649999976158142,0.35899999737739563,0.5379999876022339,0.5612499713897705,0.5644999742507935,4730.0
0.6072499752044678,0.5726249814033508,0.3647499978542328,0.5451250076293945,0.5687500238418579,0.5723749995231628,4789.0
0.6137499809265137,0.581250011920929,0.3683750033378601,0.5531250238418579,0.5757499933242798,0.5809999704360962,4850.0
0.6223750114440918,0.5889999866485596,0.37400001287460327,0.5608749985694885,0.5838750004768372,0.5878750085830688,4908.0
0.6294999718666077,0.5966249704360962,0.37825000286102295,0.5687500238418579,0.5916249752044678,0.5964999794960022,4969.0
0.6381250023841858,0.6052500009536743,0.38350000977516174,0.5764999985694885,0.5993750095367432,0.6060000061988831,5030.0
0.6461250185966492,0.6132500171661377,0.38987499475479126,0.5849999785423279,0.609250009059906,0.612625002861023,5095.0
0.6549999713897705,0.6233749985694885,0.3948749899864197,0.5954999923706055,0.6178749799728394,0.6186249852180481,5154.0
0.6642500162124634,0.6315000057220459,0.40049999952316284,0.6003749966621399,0.6236249804496765,0.6321250200271606,5222.0
0.6683750152587891,0.640250027179718,0.40537500381469727,0.6067500114440918,0.6301249861717224,0.6416249871253967,5282.0
0.6763749718666077,0.6462500095367432,0.4098750054836273,0.6146249771118164,0.6393749713897705,0.6462500095367432,5347.0
0.6855000257492065,0.6543750166893005,0.4163750112056732,0.6215000152587891,0.6455000042915344,0.6533750295639038,5408.0
0.6946250200271606,0.6636250019073486,0.42087501287460327,0.6276249885559082,0.653249979019165,0.6637499928474426,5469.0
0.6983749866485596,0.668624997138977,0.42649999260902405,0.6338750123977661,0.6587499976158142,0.668624997138977,5529.0
0.7072499990463257,0.6756250262260437,0.4311249852180481,0.640874981880188,0.6658750176429749,0.6781250238418579,5588.0
0.7127500176429749,0.6827499866485596,0.43562498688697815,0.6476250290870667,0.671750009059906,0.6861249804496765,5648.0
0.7203750014305115,0.6899999976158142,0.44225001335144043,0.6543750166893005,0.6791250109672546,0.6948750019073486,5711.0
0.7294999957084656,0.6976249814033508,0.4463750123977661,0.6602500081062317,0.687375009059906,0.7022500038146973,5779.0
0.7372499704360962,0.7048749923706055,0.45237499475479126,0.6678749918937683,0.6956250071525574,0.706125020980835,5844.0
0.746749997138977,0.7170000076293945,0.45625001192092896,0.6735000014305115,0.703249990940094,0.7114999890327454,5903.0
0.7570000290870667,0.7208750247955322,0.461124986410141,0.6818749904632568,0.7129999995231628,0.7242500185966492,5972.0
0.7606250047683716,0.7277500033378601,0.46412500739097595,0.6902499794960022,0.7181249856948853,0.7329999804496765,6032.0
0.7693750262260437,0.7357500195503235,0.46912500262260437,0.6978750228881836,0.7258750200271606,0.7425000071525574,6094.0
0.7777500152587891,0.7437499761581421,0.4727500081062317,0.7058749794960022,0.734125018119812,0.7505000233650208,6160.0
0.7858750224113464,0.7518749833106995,0.47749999165534973,0.7147499918937683,0.7432500123977661,0.7592499852180481,6228.0
0.7954999804496765,0.7617499828338623,0.4807499945163727,0.7222499847412109,0.7515000104904175,0.7691249847412109,6295.0
0.8037499785423279,0.7714999914169312,0.4832499921321869,0.7306249737739563,0.7588750123977661,0.7801250219345093,6363.0
0.8111249804496765,0.7789999842643738,0.48875001072883606,0.7393749952316284,0.768875002861023,0.7832499742507935,6427.0
0.8205000162124634,0.7913749814033508,0.49125000834465027,0.7451249957084656,0.7777500152587891,0.7898749709129333,6488.0
0.8303750157356262,0.7975000143051147,0.4958750009536743,0.7546250224113464,0.7850000262260437,0.8047500252723694,6556.0
0.8352500200271606,0.8038750290870667,0.4975000023841858,0.7612500190734863,0.7908750176429749,0.8130000233650208,6615.0
0.8426250219345093,0.8115000128746033,0.5012500286102295,0.7697499990463257,0.7996249794960022,0.8218749761581421,6677.0
0.8511250019073486,0.8207499980926514,0.5040000081062317,0.7767500281333923,0.8073750138282776,0.8306249976158142,6746.0
0.8586249947547913,0.827875018119812,0.5082499980926514,0.7835000157356262,0.8148750066757202,0.8343750238418579,6811.0
0.8683750033378601,0.8368750214576721,0.5118749737739563,0.7900000214576721,0.8230000138282776,0.8442500233650208,6872.0
0.8742499947547913,0.843625009059906,0.5133749842643738,0.7960000038146973,0.828374981880188,0.8528749942779541,6932.0
0.8822500109672546,0.8504999876022339,0.518875002861023,0.8034999966621399,0.8362500071525574,0.8611249923706055,6995.0
0.8901249766349792,0.8578749895095825,0.5227500200271606,0.8100000023841858,0.844124972820282,0.8644999861717224,7061.0
0.9007499814033508,0.8671249747276306,0.5264999866485596,0.8161249756813049,0.8537499904632568,0.8733749985694885,7122.0
0.906624972820282,0.8741250038146973,0.5286250114440918,0.8222500085830688,0.8576250076293945,0.8831250071525574,7183.0
0.9138749837875366,0.8813750147819519,0.5335000157356262,0.8305000066757202,0.8656250238418579,0.893625020980835,7244.0
0.922249972820282,0.8888750076293945,0.5377500057220459,0.8368750214576721,0.8742499947547913,0.9022499918937683,7311.0
0.9298750162124634,0.8989999890327454,0.5419999957084656,0.8445000052452087,0.8818749785423279,0.9041249752044678,7376.0
0.9411249756813049,0.9081249833106995,0.5458750128746033,0.8508750200271606,0.8884999752044678,0.9176250100135803,7437.0
0.9447500109672546,0.9143750071525574,0.5479999780654907,0.8588749766349792,0.8949999809265137,0.9266250133514404,7497.0
0.9521250128746033,0.921999990940094,0.5532500147819519,0.8672500252723694,0.9042500257492065,0.9288750290870667,7561.0
0.9626250267028809,0.9319999814033508,0.5569999814033508,0.8740000128746033,0.9135000109672546,0.9430000185966492,7621.0
0.9673749804496765,0.940500020980835,0.5606250166893005,0.8794999718666077,0.918874979019165,0.9493749737739563,7680.0
0.9748749732971191,0.949874997138977,0.5644999742507935,0.8911250233650208,0.9296249747276306,0.9552500247955322,7739.0
0.9794999957084656,0.953249990940094,0.5677499771118164,0.8947499990463257,0.9322500228881836,0.968500018119812,7797.0
0.9886249899864197,0.9605000019073486,0.5737500190734863,0.903249979019165,0.9402499794960022,0.9783750176429749,7861.0
0.9961249828338623,0.9692500233650208,0.5767499804496765,0.9101250171661377,0.9484999775886536,0.9838749766349792,7930.0
1.0053750276565552,0.9777500033378601,0.5823749899864197,0.9164999723434448,0.9567499756813049,0.9929999709129333,7989.0
1.0110000371932983,0.9851250052452087,0.5846250057220459,0.9231250286102295,0.9617499709129333,1.000749945640564,8050.0
1.0178749561309814,0.9932500123977661,0.5883749723434448,0.9296249747276306,0.9682499766349792,1.0095000267028809,8113.0
1.0253750085830688,1.0,0.5946249961853027,0.9361249804496765,0.9767500162124634,1.0113749504089355,8177.0
1.0348750352859497,1.0106250047683716,0.5987499952316284,0.9421250224113464,0.9832500219345093,1.0230000019073486,8237.0
1.0410000085830688,1.0187499523162842,0.6028749942779541,0.9474999904632568,0.9894999861717224,1.0311249494552612,8298.0
1.0497499704360962,1.0219999551773071,0.6079999804496765,0.9546250104904175,1.006500005722046,1.0361249446868896,8358.0
1.0546250343322754,1.0303750038146973,0.6127499938011169,0.9628750085830688,1.0081249475479126,1.0464999675750732,8424.0
1.063249945640564,1.0382499694824219,0.6151250004768372,0.968999981880188,1.012374997138977,1.0563750267028809,8484.0
1.07212495803833,1.0444999933242798,0.6206250190734863,0.9739999771118164,1.0203750133514404,1.0628750324249268,8542.0
1.0777499675750732,1.0532499551773071,0.6238750219345093,0.9800000190734863,1.027750015258789,1.0706249475479126,8602.0
1.0842499732971191,1.059999942779541,0.6292499899864197,0.9878749847412109,1.033750057220459,1.0762499570846558,8661.0
1.093500018119812,1.0701249837875366,0.6330000162124634,0.9928749799728394,1.0418750047683716,1.0870000123977661,8721.0
1.0991250276565552,1.0762499570846558,0.6355000138282776,0.9992499947547913,1.0484999418258667,1.0963749885559082,8782.0
1.1073750257492065,1.08412504196167,0.640625,1.00600004196167,1.0583750009536743,1.1039999723434448,8840.0
1.1124999523162842,1.0959999561309814,0.6431249976158142,1.0127500295639038,1.0637500286102295,1.1151249408721924,8901.0
1.1208750009536743,1.1004999876022339,0.6464999914169312,1.0213749408721924,1.0702500343322754,1.1239999532699585,8966.0
1.1283750534057617,1.1083749532699585,0.6521250009536743,1.0296250581741333,1.0782500505447388,1.1328749656677246,9028.0
1.136625051498413,1.1168750524520874,0.656125009059906,1.0383750200271606,1.0880000591278076,1.1360000371932983,9095.0
1.1498750448226929,1.1269999742507935,0.659375011920929,1.044374942779541,1.1052500009536743,1.1454999446868896,9155.0
1.149749994277954,1.1334999799728394,0.6613749861717224,1.0518749952316284,1.1036250591278076,1.1568750143051147,9221.0
1.1579999923706055,1.141124963760376,0.6637499928474426,1.0591249465942383,1.1102499961853027,1.1660000085830688,9281.0
1.16587495803833,1.1490000486373901,0.6678749918937683,1.0666249990463257,1.1195000410079956,1.172624945640564,9346.0
1.175125002861023,1.156749963760376,0.6727499961853027,1.0740000009536743,1.1266249418258667,1.1782499551773071,9412.0
1.184249997138977,1.165374994277954,0.6769999861717224,1.0797499418258667,1.1296249628067017,1.1892499923706055,9471.0
1.188249945640564,1.171375036239624,0.6813750267028809,1.0873750448226929,1.1386250257492065,1.1962499618530273,9531.0
1.1964999437332153,1.1772500276565552,0.6869999766349792,1.09375,1.147125005722046,1.203374981880188,9594.0
1.2048749923706055,1.1855000257492065,0.6911249756813049,1.10337495803833,1.1543749570846558,1.2046250104904175,9661.0
1.2174999713897705,1.1957499980926514,0.6957499980926514,1.1073750257492065,1.1651250123977661,1.2168749570846558,9720.0
1.2188750505447388,1.200374960899353,0.6981250047683716,1.112375020980835,1.1687500476837158,1.2216249704360962,9780.0
1.2295000553131104,1.2081249952316284,0.7039999961853027,1.1193749904632568,1.1857500076293945,1.2298749685287476,9839.0
1.2315000295639038,1.2138750553131104,0.7088750004768372,1.1260000467300415,1.1828750371932983,1.2431249618530273,9905.0
1.2412500381469727,1.2230000495910645,0.7122499942779541,1.131250023841858,1.188249945640564,1.252500057220459,9964.0
1.2489999532699585,1.2296249866485596,0.718500018119812,1.1387499570846558,1.1976250410079956,1.2622499465942383,10027.0
1.2601250410079956,1.24037504196167,0.7211250066757202,1.1454999446868896,1.2050000429153442,1.2633750438690186,10095.0
1.266124963760376,1.2476249933242798,0.7278749942779541,1.15024995803833,1.2117500305175781,1.281499981880188,10156.0
1.2725000381469727,1.2551250457763672,0.7304999828338623,1.156749963760376,1.219249963760376,1.2882499694824219,10215.0
1.278499960899353,1.2608749866485596,0.7366250157356262,1.1651250123977661,1.22837495803833,1.2868750095367432,10277.0
1.2920000553131104,1.272125005722046,0.7404999732971191,1.171125054359436,1.2365000247955322,1.30287504196167,10337.0
1.2922500371932983,1.2778749465942383,0.7432500123977661,1.17787504196167,1.240875005722046,1.3131250143051147,10397.0
1.300374984741211,1.284000039100647,0.7492499947547913,1.1848750114440918,1.2510000467300415,1.313249945640564,10460.0
1.3118749856948853,1.2947499752044678,0.753250002861023,1.1903749704360962,1.2566250562667847,1.3261250257492065,10520.0
1.315000057220459,1.2997499704360962,0.7562500238418579,1.1983749866485596,1.264875054359436,1.3327499628067017,10581.0
1.3247499465942383,1.3067500591278076,0.762624979019165,1.2046250104904175,1.2828749418258667,1.3362499475479126,10640.0
1.3302500247955322,1.3156249523162842,0.7648749947547913,1.2112499475479126,1.2916250228881836,1.3436249494552612,10707.0
1.3358750343322754,1.3214999437332153,0.7727500200271606,1.219499945640564,1.2864999771118164,1.3571250438690186,10774.0
1.3456250429153442,1.3303749561309814,0.7745000123977661,1.2261250019073486,1.293375015258789,1.3636250495910645,10835.0
1.352874994277954,1.3361250162124634,0.780875027179718,1.234624981880188,1.3012499809265137,1.372499942779541,10895.0
1.3597500324249268,1.3459999561309814,0.7838749885559082,1.2397500276565552,1.3082499504089355,1.3822499513626099,10965.0
1.3683749437332153,1.3519999980926514,0.7898749709129333,1.2463749647140503,1.3166249990463257,1.3923749923706055,11027.0
1.3769999742507935,1.359624981880188,0.7946249842643738,1.2536250352859497,1.3242499828338623,1.3991249799728394,11093.0
1.3867499828338623,1.3683749437332153,0.7996249794960022,1.2601250410079956,1.3326250314712524,1.3986250162124634,11160.0
1.397125005722046,1.3788750171661377,0.8036249876022339,1.2647500038146973,1.3504999876022339,1.4113750457763672,11222.0
1.3995000123977661,1.3865000009536743,0.8087499737739563,1.2698750495910645,1.3468749523162842,1.425125002861023,11289.0
1.409000039100647,1.393375039100647,0.8096250295639038,1.2771250009536743,1.3536250591278076,1.4356249570846558,11350.0
1.4161250591278076,1.4008749723434448,0.8162500262260437,1.2841249704360962,1.3622499704360962,1.4459999799728394,11411.0
1.4242500066757202,1.4113750457763672,0.8183749914169312,1.2896250486373901,1.3697500228881836,1.4547499418258667,11480.0
1.4307500123977661,1.418375015258789,0.8227499723434448,1.2944999933242798,1.3792500495910645,1.4581249952316284,11546.0
1.4423749446868896,1.4286249876022339,0.8276249766349792,1.2997499704360962,1.3972500562667847,1.4644999504089355,11605.0
1.4447499513626099,1.433750033378601,0.8317499756813049,1.3078750371932983,1.3953750133514404,1.4771250486373901,11672.0
1.453374981880188,1.443750023841858,0.8335000276565552,1.3137500286102295,1.3981250524520874,1.4857499599456787,11733.0
1.4612499475479126,1.449375033378601,0.8396250009536743,1.3209999799728394,1.4075000286102295,1.4854999780654907,11794.0
1.4731249809265137,1.4600000381469727,0.8424999713897705,1.3270000219345093,1.4163750410079956,1.499500036239624,11854.0
1.47475004196167,1.4671250581741333,0.846875011920929,1.331375002861023,1.4201250076293945,1.5076249837875366,11914.0
1.480875015258789,1.471250057220459,0.8522499799728394,1.3408750295639038,1.4294999837875366,1.5063749551773071,11978.0
1.4968750476837158,1.483625054359436,0.8558750152587891,1.3448749780654907,1.437000036239624,1.5201250314712524,12037.0
1.496500015258789,1.4880000352859497,0.8578749895095825,1.3522499799728394,1.4428750276565552,1.5276249647140503,12097.0
1.5066250562667847,1.4943749904632568,0.8652499914169312,1.3597500324249268,1.4527499675750732,1.534999966621399,12156.0
1.5077500343322754,1.5006250143051147,0.8668749928474426,1.365625023841858,1.453624963760376,1.5448750257492065,12216.0
1.516374945640564,1.5073750019073486,0.8738750219345093,1.3723750114440918,1.4630000591278076,1.5451250076293945,12278.0
1.527500033378601,1.5176249742507935,0.878000020980835,1.3773750066757202,1.4707499742507935,1.559749960899353,12337.0
1.531749963760376,1.5228749513626099,0.8801249861717224,1.384124994277954,1.4763749837875366,1.5641249418258667,12398.0
