PT1,PT2,PT3,PT4,PT5,PT6,Time (ms)
0.24437500536441803,0.23649999499320984,0.23649999499320984,0.2630000114440918,0.2615000009536743,0.25687500834465027,1620.0
0.2487500011920929,0.23849999904632568,0.23749999701976776,0.2694999873638153,0.2697499990463257,0.265749990940094,1682.0
0.2627499997615814,0.2551249861717224,0.25099998712539673,0.2837499976158142,0.2866249978542328,0.2863749861717224,1742.0
0.28450000286102295,0.2747499942779541,0.2685000002384186,0.3006249964237213,0.3111250102519989,0.3095000088214874,1800.0
0.3089999854564667,0.29912498593330383,0.288875013589859,0.3187499940395355,0.3348749876022339,0.33399999141693115,1866.0
0.3371250033378601,0.3253749907016754,0.31150001287460327,0.3372499942779541,0.3529999852180481,0.35499998927116394,1933.0
0.3646250069141388,0.35087499022483826,0.33137500286102295,0.3555000126361847,0.374875009059906,0.3777500092983246,1995.0
0.3877499997615814,0.37287500500679016,0.35100001096725464,0.3752500116825104,0.3955000042915344,0.3997499942779541,2055.0
0.414124995470047,0.39675000309944153,0.37450000643730164,0.39537501335144043,0.4193750023841858,0.4191249907016754,2120.0
0.44087499380111694,0.4206250011920929,0.3946250081062317,0.41499999165534973,0.4437499940395355,0.4442499876022339,2179.0
0.4647499918937683,0.44449999928474426,0.4129999876022339,0.4346249997615814,0.46437498927116394,0.4684999883174896,2241.0
0.48887500166893005,0.46875,0.4326249957084656,0.45237499475479126,0.4860000014305115,0.48612499237060547,2299.0
0.5151249766349792,0.49149999022483826,0.45399999618530273,0.4712499976158142,0.5081250071525574,0.5137500166893005,2361.0
0.5361250042915344,0.5132499933242798,0.47600001096725464,0.48912501335144043,0.527999997138977,0.531624972820282,2421.0
0.5618749856948853,0.5352500081062317,0.4958750009536743,0.5067499876022339,0.5490000247955322,0.5543749928474426,2480.0
0.5848749876022339,0.5572500228881836,0.5146250128746033,0.5252500176429749,0.5695000290870667,0.5757499933242798,2541.0
0.609250009059906,0.5808749794960022,0.5352500081062317,0.543874979019165,0.5916249752044678,0.5991250276565552,2599.0
0.6342499852180481,0.6048750281333923,0.5529999732971191,0.5646250247955322,0.6136249899864197,0.6231250166893005,2660.0
0.6568750143051147,0.6283749938011169,0.5747500061988831,0.5871250033378601,0.6363750100135803,0.6485000252723694,2720.0
0.6828749775886536,0.656125009059906,0.5952500104904175,0.6085000038146973,0.6576250195503235,0.6729999780654907,2789.0
0.7078750133514404,0.6788750290870667,0.6190000176429749,0.6273750066757202,0.6796249747276306,0.687749981880188,2852.0
0.734499990940094,0.7018749713897705,0.6393749713897705,0.6455000042915344,0.7095000147819519,0.7112500071525574,2913.0
0.7577499747276306,0.7252500057220459,0.6621249914169312,0.6635000109672546,0.7251250147819519,0.7363749742507935,2980.0
0.7833750247955322,0.7491250038146973,0.6803749799728394,0.6817499995231628,0.746874988079071,0.7605000138282776,3039.0
0.8091250061988831,0.7731249928474426,0.703499972820282,0.7046250104904175,0.7710000276565552,0.7787500023841858,3103.0
0.8363749980926514,0.7985000014305115,0.7237499952316284,0.7396249771118164,0.8073750138282776,0.8171250224113464,3164.0
0.8726249933242798,0.8357499837875366,0.7567499876022339,0.7573750019073486,0.828249990940094,0.8445000052452087,3266.0
0.8996250033378601,0.859250009059906,0.7746250033378601,0.7771250009536743,0.8463749885559082,0.8648750185966492,3325.0
0.9244999885559082,0.8820000290870667,0.7991250157356262,0.7951250076293945,0.8681250214576721,0.8803750276565552,3387.0
0.9503750205039978,0.9083750247955322,0.8198750019073486,0.812874972820282,0.890874981880188,0.9085000157356262,3448.0
0.9707499742507935,0.9301249980926514,0.8379999995231628,0.8302500247955322,0.9107499718666077,0.9336249828338623,3506.0
0.9972500205039978,0.9553750157356262,0.859250009059906,0.8504999876022339,0.9347500205039978,0.9564999938011169,3571.0
1.0231250524520874,0.9785000085830688,0.8807500004768372,0.8715000152587891,0.956250011920929,0.9803749918937683,3631.0
1.0446250438690186,1.0012500286102295,0.8985000252723694,0.890625,0.9741250276565552,1.0031249523162842,3690.0
1.0706249475479126,1.0233750343322754,0.9201250076293945,0.909500002861023,0.9952499866485596,1.015625,3750.0
1.0961250066757202,1.0479999780654907,0.9408749938011169,0.9278749823570251,1.0167499780654907,1.0456249713897705,3813.0
1.1192500591278076,1.0708750486373901,0.9597499966621399,0.9465000033378601,1.037500023841858,1.0672500133514404,3873.0
1.1452499628067017,1.0946249961853027,0.9828749895095825,0.9641249775886536,1.0603749752044678,1.0908750295639038,3932.0
1.1648750305175781,1.118749976158142,1.0003750324249268,0.9802500009536743,1.078874945640564,1.1161249876022339,3992.0
1.1885000467300415,1.141124963760376,1.0231250524520874,0.9991250038146973,1.1022499799728394,1.1425000429153442,4052.0
1.2136249542236328,1.1662499904632568,1.044374942779541,1.022125005722046,1.1260000467300415,1.1583750247955322,4119.0
1.2426249980926514,1.1923749446868896,1.0635000467300415,1.0416250228881836,1.1453750133514404,1.186750054359436,4180.0
1.2638750076293945,1.2120000123977661,1.0802500247955322,1.0609999895095825,1.1666250228881836,1.206624984741211,4239.0
1.2881250381469727,1.2350000143051147,1.105625033378601,1.08412504196167,1.1883749961853027,1.219499945640564,4303.0
1.3167500495910645,1.2615000009536743,1.1276249885559082,1.1021250486373901,1.2226250171661377,1.2488750219345093,4364.0
1.3373750448226929,1.284250020980835,1.1517499685287476,1.1216249465942383,1.2359999418258667,1.2778749465942383,4432.0
1.3632500171661377,1.309000015258789,1.169374942779541,1.1399999856948853,1.2563749551773071,1.3022500276565552,4493.0
1.3882499933242798,1.3329999446868896,1.1936249732971191,1.1616250276565552,1.278749942779541,1.3135000467300415,4550.0
1.4086250066757202,1.353124976158142,1.2059999704360962,1.1762499809265137,1.296375036239624,1.343999981880188,4609.0
1.4376250505447388,1.3758749961853027,1.22475004196167,1.1959999799728394,1.3172500133514404,1.3512500524520874,4667.0
1.4638750553131104,1.4016250371932983,1.249750018119812,1.2170000076293945,1.33774995803833,1.3847500085830688,4730.0
1.484624981880188,1.425374984741211,1.2678749561309814,1.237125039100647,1.3573750257492065,1.4110000133514404,4792.0
1.5084999799728394,1.4477499723434448,1.293125033378601,1.2573750019073486,1.3838750123977661,1.4378750324249268,4854.0
1.5361249446868896,1.4786250591278076,1.3200000524520874,1.281000018119812,1.410249948501587,1.4581249952316284,4922.0
1.5544999837875366,1.5067499876022339,1.340749979019165,1.2949999570846558,1.440250039100647,1.4788750410079956,4981.0
1.5839999914169312,1.5210000276565552,1.3602499961853027,1.315500020980835,1.4509999752044678,1.5089999437332153,5050.0
1.615625023841858,1.5494999885559082,1.3795000314712524,1.3380000591278076,1.47475004196167,1.5343749523162842,5121.0
1.6392500400543213,1.5747499465942383,1.4045000076293945,1.3616249561309814,1.496999979019165,1.549375057220459,5186.0
1.6727499961853027,1.6021250486373901,1.424375057220459,1.3793749809265137,1.518375039100647,1.578624963760376,5246.0
1.6896250247955322,1.6226249933242798,1.4462499618530273,1.3978749513626099,1.5368750095367432,1.6067500114440918,5306.0
1.7146250009536743,1.6456249952316284,1.4704999923706055,1.4203749895095825,1.561750054359436,1.6208750009536743,5370.0
1.7428749799728394,1.6708749532699585,1.488374948501587,1.4361250400543213,1.5832500457763672,1.6498750448226929,5430.0
1.7606250047683716,1.6917500495910645,1.50600004196167,1.4541250467300415,1.6027499437332153,1.6714999675750732,5490.0
1.7857500314712524,1.7166249752044678,1.527250051498413,1.4723750352859497,1.6273750066757202,1.6894999742507935,5555.0
1.8151249885559082,1.7402499914169312,1.5482499599456787,1.4917500019073486,1.6617499589920044,1.7130000591278076,5614.0
1.832124948501587,1.7636250257492065,1.5691250562667847,1.5134999752044678,1.6852500438690186,1.7384999990463257,5680.0
1.8595000505447388,1.7886250019073486,1.5933749675750732,1.5338749885559082,1.6916249990463257,1.769374966621399,5747.0
1.8872499465942383,1.8136249780654907,1.6116249561309814,1.5536249876022339,1.712249994277954,1.7916250228881836,5807.0
1.9131250381469727,1.8382500410079956,1.6319999694824219,1.5711250305175781,1.737125039100647,1.7975000143051147,5866.0
1.9424999952316284,1.8615000247955322,1.656999945640564,1.5915000438690186,1.7584999799728394,1.8335000276565552,5931.0
1.95912504196167,1.8851250410079956,1.6741249561309814,1.6104999780654907,1.774749994277954,1.8589999675750732,5992.0
1.9853750467300415,1.9078749418258667,1.6977499723434448,1.6291249990463257,1.7986249923706055,1.8683749437332153,6052.0
2.0137500762939453,1.9358750581741333,1.7166249752044678,1.6490000486373901,1.8207499980926514,1.9033750295639038,6113.0
2.031874895095825,1.9572499990463257,1.7345000505447388,1.6696250438690186,1.8394999504089355,1.9297499656677246,6174.0
2.0576250553131104,1.9792499542236328,1.7608749866485596,1.6924999952316284,1.8630000352859497,1.9450000524520874,6238.0
2.0910000801086426,2.0068750381469727,1.7827500104904175,1.7105000019073486,1.8880000114440918,1.9737499952316284,6297.0
2.1075000762939453,2.0271248817443848,1.7987500429153442,1.730375051498413,1.9052499532699585,1.9953750371932983,6358.0
2.1332499980926514,2.0512499809265137,1.8235000371932983,1.7483750581741333,1.9427499771118164,2.009500026702881,6417.0
2.1576249599456787,2.076625108718872,1.8457499742507935,1.768875002861023,1.9500000476837158,2.0298750400543213,6483.0
2.188999891281128,2.1056249141693115,1.8630000352859497,1.7862499952316284,1.9707499742507935,2.0667500495910645,6545.0
2.2052500247955322,2.1252501010894775,1.881500005722046,1.806249976158142,1.9902499914169312,2.0878748893737793,6606.0
2.2336249351501465,2.147749900817871,1.9058749675750732,1.8244999647140503,2.0118749141693115,2.113374948501587,6665.0
2.252500057220459,2.171250104904175,1.921125054359436,1.8466249704360962,2.0309998989105225,2.1367499828338623,6725.0
2.278249979019165,2.1916251182556152,1.9483749866485596,1.8672499656677246,2.0697500705718994,2.1505000591278076,6783.0
2.2981250286102295,2.2174999713897705,1.9708750247955322,1.8886250257492065,2.0762500762939453,2.1806249618530273,6850.0
2.3239998817443848,2.243499994277954,1.9857499599456787,1.9077500104904175,2.0948750972747803,2.207750082015991,6911.0
2.350374937057495,2.2642500400543213,2.008625030517578,1.9247499704360962,2.1157500743865967,2.215749979019165,6968.0
2.3787500858306885,2.2909998893737793,2.0301249027252197,1.9427499771118164,2.1367499828338623,2.253499984741211,7030.0
2.398750066757202,2.3167500495910645,2.0477499961853027,1.9600000381469727,2.154249906539917,2.281874895095825,7091.0
2.4242498874664307,2.3353750705718994,2.067500114440918,1.984624981880188,2.182374954223633,2.3026249408721924,7155.0
2.4472498893737793,2.3576250076293945,2.096250057220459,2.008500099182129,2.2053749561309814,2.3125,7220.0
2.4814999103546143,2.3868749141693115,2.117374897003174,2.0255000591278076,2.2296249866485596,2.343874931335449,7280.0
2.4983749389648438,2.4065001010894775,2.130625009536743,2.0447499752044678,2.243499994277954,2.3717501163482666,7340.0
2.5250000953674316,2.427999973297119,2.1579999923706055,2.0646250247955322,2.264625072479248,2.397249937057495,7403.0
2.5497500896453857,2.4538750648498535,2.1792500019073486,2.0878748893737793,2.290250062942505,2.4096250534057617,7469.0
2.5820000171661377,2.482875108718872,2.202625036239624,2.10337495803833,2.3062500953674316,2.446000099182129,7530.0
2.5991249084472656,2.5022499561309814,2.2171249389648438,2.126499891281128,2.3297500610351562,2.466125011444092,7592.0
2.6246249675750732,2.5264999866485596,2.2457499504089355,2.1440000534057617,2.353250026702881,2.4855000972747803,7654.0
2.6528749465942383,2.5531249046325684,2.2623751163482666,2.167249917984009,2.3788750171661377,2.509000062942505,7714.0
2.670875072479248,2.572000026702881,2.2788751125335693,2.187375068664551,2.395625114440918,2.5328750610351562,7774.0
2.699125051498413,2.5981249809265137,2.3012499809265137,2.208250045776367,2.4191250801086426,2.5622498989105225,7838.0
2.7249999046325684,2.620374917984009,2.3264999389648438,2.2295000553131104,2.4383749961853027,2.5693750381469727,7903.0
2.7562499046325684,2.649625062942505,2.3451249599456787,2.246500015258789,2.460124969482422,2.6056249141693115,7964.0
2.772749900817871,2.6705000400543213,2.361375093460083,2.2652499675750732,2.4806249141693115,2.627000093460083,8023.0
2.7990000247955322,2.6922500133514404,2.389625072479248,2.2841250896453857,2.50600004196167,2.651124954223633,8083.0
2.8213748931884766,2.7214999198913574,2.4103751182556152,2.308500051498413,2.544374942779541,2.6675000190734863,8145.0
2.842750072479248,2.7456250190734863,2.4337499141693115,2.330749988555908,2.5471251010894775,2.7003750801086426,8212.0
2.874375104904175,2.771125078201294,2.4478750228881836,2.3524999618530273,2.563124895095825,2.724874973297119,8272.0
2.9023749828338623,2.7947499752044678,2.4711248874664307,2.372999906539917,2.5918750762939453,2.749500036239624,8340.0
2.9326250553131104,2.8152499198913574,2.4982500076293945,2.391124963760376,2.6312499046325684,2.7642500400543213,8399.0
2.9438750743865967,2.839250087738037,2.5198750495910645,2.411875009536743,2.655750036239624,2.7855000495910645,8465.0
2.9558749198913574,2.8626248836517334,2.5439999103546143,2.4311249256134033,2.6581249237060547,2.8052499294281006,8532.0
2.9683749675750732,2.9013750553131104,2.5607500076293945,2.4523749351501465,2.678874969482422,2.8429999351501465,8593.0
2.9618749618530273,2.9126250743865967,2.5797500610351562,2.4741249084472656,2.697000026702881,2.8726251125335693,8655.0
2.9628748893737793,2.923875093460083,2.6097500324249268,2.4978749752044678,2.7214999198913574,2.900624990463257,8719.0
2.9623749256134033,2.9261250495910645,2.631624937057495,2.5179998874664307,2.7447500228881836,2.9140000343322754,8784.0
2.9623749256134033,2.928375005722046,2.645625114440918,2.5355000495910645,2.760999917984009,2.94112491607666,8844.0
2.961124897003174,2.9286251068115234,2.671250104904175,2.552000045776367,2.7866249084472656,2.963249921798706,8906.0
2.9633750915527344,2.928499937057495,2.690124988555908,2.5752499103546143,2.8083748817443848,2.978250026702881,8972.0
2.96274995803833,2.9257500171661377,2.7209999561309814,2.5980000495910645,2.8320000171661377,2.9691250324249268,9037.0
2.969374895095825,2.931874990463257,2.741499900817871,2.617000102996826,2.850250005722046,2.9814999103546143,9097.0
2.9613749980926514,2.9277501106262207,2.7582499980926514,2.640749931335449,2.875,2.9831249713897705,9158.0
2.9639999866485596,2.92787504196167,2.7864999771118164,2.662874937057495,2.8975000381469727,2.9653749465942383,9218.0
2.975874900817871,2.937000036239624,2.804500102996826,2.682374954223633,2.9175000190734863,2.9790000915527344,9278.0
2.9633750915527344,2.9282500743865967,2.819124937057495,2.701625108718872,2.9363749027252197,2.973750114440918,9339.0
2.971874952316284,2.9281249046325684,2.848875045776367,2.7195000648498535,2.9673750400543213,2.9679999351501465,9398.0
2.9565000534057617,2.9241249561309814,2.872999906539917,2.7422499656677246,2.9428749084472656,2.9821250438690186,9465.0
2.9633750915527344,2.929374933242798,2.8878750801086426,2.761125087738037,2.9438750743865967,2.9806249141693115,9525.0
2.9646248817443848,2.927375078201294,2.916874885559082,2.7820000648498535,2.944999933242798,2.966749906539917,9584.0
2.9698750972747803,2.933500051498413,2.922374963760376,2.8031249046325684,2.9402499198913574,2.9811251163482666,9646.0
2.9628748893737793,2.9287500381469727,2.9170000553131104,2.8259999752044678,2.944624900817871,2.980875015258789,9706.0
2.9653749465942383,2.927000045776367,2.9231250286102295,2.844749927520752,2.9477500915527344,2.9795000553131104,9766.0
2.9608750343322754,2.9276249408721924,2.9151248931884766,2.8661251068115234,2.942500114440918,2.981374979019165,9826.0
2.9614999294281006,2.9246249198913574,2.924499988555908,2.8843750953674316,2.946125030517578,2.9851250648498535,9887.0
2.9630000591278076,2.9257500171661377,2.923875093460083,2.906749963760376,2.9452500343322754,2.958625078201294,9952.0
2.9691250324249268,2.9341249465942383,2.9237499237060547,2.9272499084472656,2.969249963760376,2.967250108718872,10014.0
2.953749895095825,2.9317500591278076,2.92549991607666,2.9433751106262207,2.940624952316284,2.9830000400543213,10080.0
2.963249921798706,2.9286251068115234,2.916249990463257,2.9453749656677246,2.9422500133514404,2.982875108718872,10141.0
2.9630000591278076,2.9257500171661377,2.9241249561309814,2.946624994277954,2.9472498893737793,2.981750011444092,10204.0
2.95912504196167,2.924499988555908,2.924499988555908,2.9462499618530273,2.9452500343322754,2.9706249237060547,10270.0
2.9721250534057617,2.934875011444092,2.9230000972747803,2.945499897003174,2.9462499618530273,2.978874921798706,10330.0
2.9598751068115234,2.927500009536743,2.91587495803833,2.946000099182129,2.9443750381469727,2.978874921798706,10390.0
2.9666249752044678,2.927000045776367,2.924875020980835,2.9443750381469727,2.9473750591278076,2.964250087738037,10449.0
2.9678750038146973,2.9457499980926514,2.919250011444092,2.955125093460083,2.958250045776367,2.964124917984009,10510.0
2.9563748836517334,2.9242498874664307,2.9231250286102295,2.94950008392334,2.946000099182129,2.9584999084472656,10568.0
2.9779999256134033,2.934375047683716,2.9206249713897705,2.9458749294281006,2.945625066757202,2.981374979019165,10628.0
2.960750102996826,2.9281249046325684,2.9171249866485596,2.9458749294281006,2.944000005722046,2.9821250438690186,10690.0
2.9613749980926514,2.9247500896453857,2.924499988555908,2.9467499256134033,2.945125102996826,2.984250068664551,10753.0
2.9609999656677246,2.9260001182556152,2.9241249561309814,2.9483749866485596,2.9457499980926514,2.969749927520752,10819.0
2.9684998989105225,2.929500102996826,2.9232499599456787,2.944499969482422,2.942500114440918,2.9887499809265137,10880.0
